##TITLE= E141 dye (copper chlorophyll complexes)
##JCAMP-DX= 4.24 $$handmade
##DATA TYPE= UV/Vis SPECTRUM
##ORIGIN= Lappeenranta Univ of Technology 
##OWNER= Jouni Haanpalo
##NPOINTS=  316
##SPECTROMETER/DATA SYSTEM= Hewlett Packard 8452A Diode Array Spectrophotometer.
##XUNITS= NANOMETERS    
##YUNITS= ARBITRARY     
##RESOLUTION= 2
##FIRSTX=  190
##LASTX=  820
##XFACTOR= 1.0
##YFACTOR=  3.7252E-9
##FIRSTY=  .91639
##MAXY=  4.1107                                 
##MINY=  .037598                                
##XYDATA= (X++(Y..Y))
 190    245993360 309419808 379866944 412307392 477814720 507428832
 202    543035392 578420480 615407488 609779456 651341568 704356224
 214    727768832 743534336 732692224 865337216 737451904 788881088
 226    782839744 854757056 811847360 816308096 925048384 936243072
 238    914853504 949956224 966725504 941944576 1041891200 900460160
 250    933285696 874643328 1025781632 862797568 931663552 823439296
 262    826589056 793472704 760037248 732962496 717799168 705228480
 274    689319808 701443968 687521536 698015424 691691456 700190656
 286    704700352 706428800 701796096 702959552 710840256 704610176
 298    710115264 707116800 708824832 706891520 716099328 715706112
 310    715140800 725606272 730029824 741171072 747614016 751800000
 322    772009728 780603136 786804480 798174848 814055296 821472960
 334    815333248 845668224 827059904 865529728 863260544 883855104
 346    861908672 946433920 909708992 891150208 931557376 1053408960
 358    928272128 961715968 1064189824 1029017216 1063927552 995393408
 370    1009856384 1078242816 978833280 1091227392 1020231296 1090060032
 382    1035394816 1068826496 1097039616 1099583232 1094864768 1079586304
 394    1095962368 1101184768 1084731008 1101156096 1019801280 1099034368
 406    1062391616 1053032320 1099759360 1040252480 1103466112 1029279488
 418    1007542144 1029176896 992628288 925863680 864497536 796594048
 430    733777856 687017728 642564032 602775424 570548160 540118912
 442    516214784 490831648 469344256 447950656 429076224 410951488
 454    393977792 378322880 363687808 349753344 335105888 322998112
 466    310800384 299032448 286912352 275799904 266272624 256860192
 478    248557456 240992144 234164208 227250144 225939344 219090784
 490    218603584 216375296 215404640 214388640 212877344 211148848
 502    209428448 206471088 203493344 199688272 196001856 192774192
 514    189439968 187220000 185532320 184930240 184930240 185622528
 526    187285488 188432224 190545904 192081888 193904560 194457520
 538    195006496 194146160 193560432 191692640 189628384 188690496
 550    186671040 186118064 186372032 188026928 190840928 195645376
 562    200708064 207880128 215322480 223788944 231522288 238870432
 574    246054848 251637776 255922032 258277264 259555296 258601024
 586    256815072 255987776 252452736 251563952 250474384 250048384
 598    251605056 254922624 260366224 265719616 280141856 292474848
 610    309067616 325177280 345694048 364490688 379809760 400727872
 622    422469472 435982272 438734816 438214592 429354880 411234112
 634    394354688 375484224 354590528 332234688 308625248 288886656
 646    268369920 249921392 233471936 217788320 190857280 216686656
 658    170168192 177909824 170586112 162594800 155975728 148373360
 670    142110768 137019360 130908160 125526024 120295280 116043808
 682    110993464 105136216 101781576 96317304 92061800 88256456
 694    84324416 79683704 77455424 73158576 69849032 66682840
 706    63012792 61759460 57479268 54951948 53637148 51069024
 718    48250992 46944248 44748716 42450908 41873504 39719044
 730    38076492 36917384 35385424 34856868 32190502 32604166
 742    30707668 29368444 29032360 28213362 26890248 26316870
 754    25710476 24932280 25804694 23904172 23302070 22577026
 766    20135874 18395070 19042270 17985438 18161534 17649630
 778    21421950 23543932 18759606 12914695 17207244 17944638
 790    12296220 18395070 13025291 16851032 14213118 13275204
 802    18411446 11198587 13623364 16347179 10092634 14114870
 814    11128794 13430897 12247097 11325556
##END= 
