##TITLE= [Ti(H2O)6]3+
##JCAMP-DX= 4.24 $$Exported PE UV WinLab Data File
##DATA TYPE= UV/VIS SPECTRUM
##ORIGIN= Chem. Dept. UWI, JAMAICA
##OWNER= public domain
##DATE= 97/07/09
##TIME= 10:32:02.00
##SPECTROMETER/DATA SYSTEM= PERKIN-ELMER LAMBDA 19 UV/VIS/NIR UV
##RESOLUTION= 1.000000
##DELTAX= -1.000000
##XUNITS= NANOMETERS
##YUNITS= ABSORBANCE
##XFACTOR= 1.00
##YFACTOR= .00000011920928955078
##FIRSTX= 800.00
##LASTX= 350.00
##NPOINTS= 451
##FIRSTY= .12
##MINY= .032423
##MAXY= .37
##$ASSIGNMENT TYPE= CHIME
##$CHIME TARGET= MOLDISPLAY
##PEAK ASSIGNMENT= (XYWA)
(515, -1, 40, <select *; label off; spacefill off; wireframe on; select atomno=1; 
label "2Eg - 2T2g"; spacefill 40>)
(575, -1, 325, <select *; label off; spacefill off; wireframe on>)
##XYDATA= (X++(Y..Y))
  800.000000  271984   272244   273930   276892   279769   
  795.000000  281925   283728   287361   289600   292327   
  790.000000  295162   298291   299977   303190   306277   
  785.000000  309917   312744   314699   318373   322500   
  780.000000  326124   329580   333330   335738   338170   
  775.000000  342650   346819   350434   353471   356021   
  770.000000  359293   365014   369242   371406   376632   
  765.000000  380449   384022   388703   390071   395884   
  760.000000  399608   404885   409507   413701   417837   
  755.000000  424112   427752   432290   436502   441375   
  750.000000  446048   451484   457045   461449   465895   
  745.000000  472715   477186   482387   487831   492403   
  740.000000  498628   503216   508241   511135   516093   
  735.000000  519968   521394   524750   526922   529791   
  730.000000  532107   535395   538734   542995   547080   
  725.000000  551509   558271   564008   569511   575560   
  720.000000  581834   587866   594342   600239   607436   
  715.000000  616286   623417   630446   638633   646317   
  710.000000  654698   664361   675359   684335   693411   
  705.000000  703117   713435   724013   734373   745186   
  700.000000  755856   768128   779453   790635   802622   
  695.000000  816212   827646   839859   852166   865294   
  690.000000  879387   892439   907077   919836   933711   
  685.000000  948551   962937   978053   992817   1007422  
  680.000000  1023729  1037780  1053995  1069405  1084916  
  675.000000  1101181  1118294  1134878  1150800  1167829  
  670.000000  1184757  1201400  1219830  1236674  1254122  
  665.000000  1270975  1287920  1306023  1323622  1341565  
  660.000000  1359257  1377167  1396829  1414211  1430577  
  655.000000  1449493  1468284  1485229  1503507  1522365  
  650.000000  1540853  1559518  1577201  1595698  1613641  
  645.000000  1632776  1650778  1668495  1686958  1704272  
  640.000000  1722744  1741417  1759779  1775995  1793955  
  635.000000  1811671  1829396  1846425  1863748  1880777  
  630.000000  1897101  1913677  1930177  1946912  1963354  
  625.000000  1979334  1995407  2009944  2025438  2040571  
  620.000000  2056728  2070191  2085492  2100189  2114248  
  615.000000  2128434  2141084  2155051  2167424  2181382  
  610.000000  2194301  2206288  2218267  2229978  2241915  
  605.000000  2254061  2265302  2275058  2286358  2297254  
  600.000000  2306952  2317488  2327705  2337947  2346764  
  595.000000  2356864  2365731  2375277  2384328  2393128  
  590.000000  2403202  2412380  2421313  2430549  2439450  
  585.000000  2447301  2456395  2465974  2475395  2483356  
  580.000000  2492810  2502003  2510249  2519922  2529803  
  575.000000  2539878  2548577  2557846  2567837  2578180  
  570.000000  2588599  2599236  2608623  2619947  2630727  
  565.000000  2641498  2652613  2663526  2676679  2687400  
  560.000000  2699706  2711836  2724352  2736977  2749551  
  555.000000  2763376  2776076  2788911  2801661  2814748  
  550.000000  2829008  2842145  2855332  2868821  2882813  
  545.000000  2896184  2909967  2922566  2936483  2949292  
  540.000000  2962135  2974240  2987016  3000345  3011880  
  535.000000  3023842  3034210  3045443  3055459  3065500  
  530.000000  3075289  3083720  3092981  3100271  3107544  
  525.000000  3113416  3119632  3123893  3128012  3130948  
  520.000000  3134236  3136425  3136853  3136325  3135108  
  515.000000  3134085  3130704  3127290  3122047  3115848  
  510.000000  3109288  3101445  3091865  3082210  3071733  
  505.000000  3060106  3047397  3033892  3018297  3002669  
  500.000000  2986907  2968653  2951230  2930418  2910990  
  495.000000  2890060  2869173  2845710  2822683  2799195  
  490.000000  2775162  2750919  2724369  2698406  2671856  
  485.000000  2645675  2619092  2591879  2564348  2536095  
  480.000000  2509075  2480386  2452544  2424098  2396668  
  475.000000  2367433  2339164  2311683  2282247  2254691  
  470.000000  2227167  2198453  2170989  2143382  2115691  
  465.000000  2088126  2062273  2035454  2008820  1982614  
  460.000000  1956308  1930479  1905456  1880038  1855250  
  455.000000  1831007  1806831  1783309  1760476  1736459  
  450.000000  1713869  1691563  1669099  1647305  1626484  
  445.000000  1605840  1584541  1563947  1544427  1524429  
  440.000000  1504095  1483803  1465314  1447111  1427683  
  435.000000  1408733  1391847  1373912  1355717  1338118  
  430.000000  1321139  1302860  1286763  1270916  1254609  
  425.000000  1238922  1223160  1207608  1192860  1177669  
  420.000000  1163140  1148560  1135038  1120391  1107523  
  415.000000  1094127  1081552  1069430  1057041  1045179  
  410.000000  1033905  1022681  1011801  1000484  991920   
  405.000000  982298   972701   964002   956646   947938   
  400.000000  940791   933845   927504   921019   915340   
  395.000000  910391   904359   900618   897162   893865   
  390.000000  890040   887918   885678   883539   882742   
  385.000000  882088   881442   881106   881375   882910   
  380.000000  884353   880158   880997   883514   885233   
  375.000000  890577   893848   899712   905056   911154   
  370.000000  916749   920507   926933   934022   940179   
  365.000000  946680   954297   962518   970344   977936   
  360.000000  985930   994747   1002800  1011809  1021288  
  355.000000  1030801  1042092  1050514  1059624  1069766  
  350.000000  1080160  
##END= 
